# #0 time, 1 flux
1977.38471367 0.99397805991
1977.40514582 0.994368644386
1977.42557796 0.994658031287
1977.44601021 0.995053762862
1977.46644226 0.995413023264
1977.4868745 0.995707406967
1977.50730664 0.996128871941
1977.52773869 0.996345101965
1977.54817093 0.996667925723
1977.56860308 0.997056122287
1977.58903512 0.997272018823
1977.60946736 0.997535717127
1977.6298995 0.997678349092
1977.65033154 0.998029935696
1977.67076378 0.998277645218
1977.69119593 0.99847384533
1977.71162796 0.9987590572
1977.7320602 0.999072888318
1977.75249234 0.999168119801
1977.77292438 0.999271955185
1977.79335662 0.999488822984
1977.81378876 0.999625810389
1977.8342209 0.999731319657
1977.85465303 0.99996380667
1977.87508517 1.00012202788
1977.89551731 1.00023326797
1977.91594944 1.00036229974
1977.93638158 1.00069066483
1977.95681381 1.00100486879
1977.97724585 1.00099399837
1977.99767798 1.00086644155
1978.01811021 1.00108019953
1978.03854225 1.00129278073
1978.05897438 1.00123123887
1978.07940661 1.00076346037
1978.09983864 1.00113205345
1978.12027078 1.00139483613
1978.14070301 1.00110780206
1978.16113504 1.00118020152
1978.18156717 1.00070744475
1978.2019994 1.00051724064
1978.22243143 1.00006114274
1978.24286366 0.999728872065
1978.26329579 0.99956072559
1978.28372791 0.999521867083
1978.30416004 0.999137659641
1978.32459217 0.999171092977
1978.34502429 0.998975704538
1978.36545642 0.999154632625
1978.38588855 0.999433694083
1978.40632067 0.999769333684
1978.4267528 1.00002889763
1978.44718492 1.00049809033
1978.46761705 1.00137439363
1978.6106419 0.999234633792
1978.63107403 0.999262583944
1978.65150625 0.999375712261
1978.67193827 0.999327853744
1978.69237039 0.999456737159
1978.7128026 0.999275433388
1978.73323462 0.999267435863
1978.75366674 0.999434666269
1978.77409896 0.999596618325
1978.79453108 0.999888762441
1978.81496309 1.00004000563
1978.83539531 1.00010070658
1978.85582743 1.00030544773
1978.87625944 1.00034241337
1978.91712377 1.00040884002
1978.93755579 1.00043325182
1978.957988 1.00054471749
1978.97842011 1.00031008664
1978.99885213 1.00041194547
1979.01928434 1.00042911061
1979.06014846 1.00062513947
1979.08058068 1.00053934032
1979.10101279 1.00043799316
1979.121445 1.00044282332
1979.14187701 1.00019746101
1979.16230912 1.00031990635
1979.18274123 1.0002459641
1979.20317334 0.99999780943
1979.22360545 1.00018231847
1979.24403755 1.00030024891
1979.26446966 1.00008885989
1979.28490177 1.00012475014
1979.30533388 1.00008637059
1979.32576598 1.00002282556
1979.34619809 0.999769744356
1979.36663029 0.99957652689
1979.3870623 0.9997019325
1979.4074944 0.999724262122
1979.42792661 0.999750566874
1979.44835861 0.999844946618
1979.46879072 0.999809628
1979.48922292 1.00003273556
1979.50965492 0.99989733559
1979.53008702 0.999853464087
1979.55051923 1.00005054972
1979.57095123 0.999930745443
1979.59138343 0.999778477832
1979.61181553 0.999957305795
1979.63224763 1.00006243627
1979.65267973 1.00003103382
1979.67311183 1.00004290896
1979.69354393 1.00002759171
1979.71397603 1.00004308103
1979.73440812 1.00001474015
1979.75484022 0.999681999626
1979.77527232 0.999332590721
1979.79570442 0.99948321519
1979.81613651 0.999511814103
1979.83656871 0.99968026112
1979.85700071 0.999280211884
1979.8774328 0.999519158558
1979.8978649 0.999637138929
1979.91829699 0.9996256309
1979.93872908 0.999488811493
1979.95916118 0.999473733786
1979.97959327 0.999368252874
1980.00002536 0.999468468983
1980.02045746 0.999264494511
1980.04088955 0.999400242056
1980.06132174 0.999250965184
1980.08175373 0.999467217537
1980.10218582 0.999457832357
1980.12261801 0.999503953535
1980.14305 0.99975944268
1980.16348209 0.999931040627
1980.18391428 0.999801647452
1980.20434637 0.999956240579
1980.22477836 0.999973959479
1980.24521055 1.00011088149
1980.26564263 1.00006857456
1980.28607462 1.00020571487
1980.30650681 1.00040183339
1980.32693889 1.00018566453
1980.34737088 1.00027948781
1980.36780306 1.00019888176
1980.38823515 1.0003665889
1980.40866713 1.00034928151
1980.42909932 1.00035971021
1980.4495314 1.00040003462
1980.46996348 1.00040569107
1980.49039557 1.00056209515
1980.51082765 1.00062074684
1980.53125983 1.00064776775
1980.55169181 1.00078436559
1980.5721239 1.00073272112
1980.59255608 1.00085965865
1980.61298806 1.00093512566
1980.63342014 1.00076446613
1980.65385232 1.0008722566
1980.6742843 1.00108502728
1980.69471638 1.0011862567
1980.71514855 1.0010889401
1980.73558053 1.00123238594
1980.75601261 1.00102353345
1980.77644479 1.00113251464
1980.79687676 1.00101985977
1980.81730884 1.00079342113
1980.83774102 1.00069121469
1980.85817299 1.00083136614
1980.87860507 1.00064286909
1980.89903724 1.00052052763
1980.91946922 1.00050526141
1980.93990129 1.00033587008
1980.96033346 1.00025644443
1980.98076544 1.00018102636
1981.0829259 1.00173676643
1981.10335797 1.00142214618
1981.12379004 1.00117325974
1981.14422211 1.00083344529
1981.16465418 1.0006652116
1981.18508635 1.00048985836
1981.20551832 1.00005014131
1981.22595038 0.999862627111
1981.24638255 0.999629544052
1981.26681452 0.999310289586
1981.28724659 0.998851539611
1981.30767875 0.998535005175
1981.32811072 0.998266150978
1981.34854279 0.998151310551
1981.36897495 0.997915930852
1981.38940692 0.99768771727
1981.40983898 0.997439518839
1981.61415971 1.00157932413
1981.63459167 1.00137855567
1981.65502383 1.00136411717
1981.67545589 1.00119553622
1981.69588785 1.00110774694
1981.71632001 1.00092542724
1981.73675206 1.00085508928
1981.75718402 1.00063404877
1981.77761618 1.00051395605
1981.79804824 1.00047234292
1981.81848019 1.00036085956
1981.83891235 1.00033126641
1981.85934441 1.00032250682
1981.87977646 1.00018849333
1981.90020852 1.00006587022
1981.92064057 0.999987279852
1981.94107273 0.999917910317
1981.96150468 0.999832397588
1981.98193673 0.999706692843
1982.00236889 0.999741715958
1982.02280094 0.999610501337
1982.04323289 0.99966643622
1982.06366505 0.999698844987
1982.0840971 0.999714721923
1982.10452905 0.999767747136
1982.1249612 0.999714566317
1982.14539315 0.999669661888
1982.1658252 0.999525365968
1982.18625735 0.999578689248
1982.2066893 0.999563192139
1982.22712135 0.999603988815
1982.2475535 0.999570562053
1982.26798544 0.999461611712
1982.28841749 0.999569489953
1982.30884964 0.999394523464
1982.32928159 0.999282420319
1982.34971363 0.999483904996
1982.37014578 0.99958217298
1982.39057783 0.999804661945
1982.41100987 0.999855771912
1982.43144192 0.9998220212
1982.45187396 0.999843479078
1982.472306 0.999910324802
1982.49273805 0.999886449122
1982.51317009 0.99998278203
1982.53360224 1.00030193453
1982.55403418 1.00063920761
1982.57446622 1.00078902522
1982.59489836 1.00078091551
1982.6153303 1.00083007398
1982.63576234 1.00080827589
1982.65619449 1.00093918433
1982.67662643 1.00098322661
1982.69705847 1.00106867333
1982.71749061 1.00104978489
1982.73792254 1.00093199579
1982.75835458 1.00084046426
1982.77878672 1.00078051236
1982.79921866 1.00085799889
1982.8196507 1.00076602421
1982.84008283 1.00055767322
1982.86051487 1.00059728164
1982.88094691 1.00050148041
1982.90137894 1.00034197065
1982.92181088 1.0002555343
1982.94224302 0.999947603311
1982.98310698 0.999947445209
1983.00353912 0.999740632009
1983.02397115 0.999757582827
1983.04440309 0.999508207557
1983.06483522 0.999544765219
1983.08526725 0.999114817132
1983.10569918 0.998985694765
1983.12613132 0.998756524801
1983.14656335 0.998933415743
1983.16699528 0.998742404964
1983.18742741 0.998456593649
1983.20785944 0.998359214816
1983.22829147 0.998279958571
1983.2487235 0.997933411389
1983.26915553 0.998068842583
1983.28958756 0.9981438102
1983.31001958 0.998191525322
1983.33045161 0.998258759511
1983.35088374 0.998402297931
1983.37131577 0.998430599779
1983.39174769 0.998474915487
1983.49390792 0.99903208583
1983.51433985 0.999165585931
1983.53477197 0.999234804841
1983.555204 0.999056390346
1983.57563592 0.999317350834
1983.59606804 0.999504458601
1983.61650006 0.999404591694
1983.63693199 0.99956817827
1983.65736411 0.999601532284
1983.67779603 0.999980630647
1983.69822815 1.00018556718
1983.71866017 1.00033186346
1983.73909209 1.0002547041
1983.75952411 1.0004060745
1983.77995623 1.00062393124
1983.80038825 1.00066762048
1983.82082027 1.00078659409
1983.84125229 1.00086925169
1983.86168431 1.00116127072
1983.88211642 1.00105099011
1983.90254834 1.001241308
1983.92298036 1.00123110947
1983.94341248 1.0013178205
1983.96384439 1.00134754022
1983.98427641 1.00132455541
1984.00470852 1.00142415662
1984.02514044 1.00147295152
1984.04557245 1.00138242874
1984.06600457 1.00145395555
1984.08643648 1.00145349688
1984.1068685 1.00150927555
1984.12730061 1.00143624142
1984.14773252 1.00151047053
1984.16816453 1.00153832716
1984.18859665 1.00144156559
1984.20902866 1.00143258846
1984.22946057 1.00145821562
1984.24989268 1.00135669934
1984.27032469 1.00146011499
1984.2907567 1.00131695024
1984.31118871 1.0011433237
1984.33162072 1.00118276477
1984.37248474 1.00095742517
1984.47464478 1.0004510313
1984.49507678 1.00051913473
1984.51550869 1.00045741734
1984.53594079 1.00045406774
1984.5563728 1.00040618867
1984.5768047 1.00038801595
1984.59723681 1.00026257753
1984.61766881 1.00019310811
1984.63810082 1.00010115897
1984.65853282 0.999936926424
1984.67896482 0.999813962211
1984.69939683 0.999657766194
1984.71982893 0.999577164108
1984.74026083 0.999441047052
1984.76069293 0.999421992504
1984.78112493 0.999417252017
1984.80155683 0.999346984875
1984.82198893 0.999259359383
1984.84242094 0.99920818807
1985.00587692 0.999167365197
1985.02630892 0.999106275954
1985.04674092 0.999176779329
1985.06717291 0.999158928864
1985.08760491 0.999252484855
1985.1080369 0.999174046283
1985.1284689 0.999378082313
1985.14890089 0.999198119927
1985.16933279 0.999513579691
1985.18976488 0.999533174852
1985.21019688 0.999559850281
1985.23062897 0.999549314711
1985.25106086 0.999470491715
1985.27149285 0.999538048319
1985.29192495 0.999300909891
1985.31235684 0.999396423105
1985.33278883 0.999367052802
1985.35322092 0.999179874348
1985.37365281 0.998846390301
1985.3940848 0.998622333625
1985.41451689 0.999334321711
1985.43494878 0.999843810098
1985.45538077 0.999669672391
1985.47581286 0.999785762733
1985.49624475 0.99967340447
1985.51667674 0.999571249269
1985.53710882 0.999753918575
1985.55754081 1.00010897051
1985.5779727 0.999949632624
1985.59840478 0.99991851518
1985.61883677 1.00000722462
1985.63926866 1.00003147646
1985.65970074 0.999934681849
1985.68013273 0.999955489424
1985.70056481 1.00014823519
1985.7209967 1.00008707962
1985.74142868 1.00005077946
1985.76186076 0.999910336665
1985.78229265 0.999883221608
1985.80272463 0.999722904595
1985.82315671 0.999689770445
1985.8435886 0.999861533754
1985.86402058 0.999814057377
1985.88445256 0.998698238765
1985.90488454 1.00042928364
1985.92531652 1.00080834607
1985.9457485 1.0005565004
1985.96618048 1.00020495823
1985.98661246 1.00012078955
1986.00704444 0.99987766799
1986.02747642 0.999945525137
1986.0479084 0.999713602433
1986.06834048 0.99988628611
1986.08877236 0.99997463416
1986.10920433 1.00006764538
1986.12963641 1.00027426937
1986.15006829 1.00018713977
1986.17050036 0.999958618744
1986.19093234 1.00028871698
1986.21136422 1.0001084035
1986.23179629 1.00004922094
1986.25222827 1.00008125003
1986.27266014 1.00010839622
1986.29309222 1.00002614257
1986.31352419 0.999946321969
1986.33395606 0.999860500479
1986.35438814 0.999992018393
1986.37482011 0.999936213267
1986.39525208 0.999959192541
1986.41568405 1.0000728567
1986.456548 0.999876790453
1986.47697997 1.00034859353
1986.49741194 1.00033382293
1986.51784391 1.00040735349
1986.53827598 1.00063934487
1986.55870785 1.00010415296
1986.70173173 1.0008133051
1986.7221636 1.00075301811
1986.74259556 1.00062018826
1986.76302763 1.00066323725
1986.7834595 1.00060256159
1986.80389146 1.0006766485
1986.82432353 1.00053415499
1986.84475539 1.00048790735
1986.86518736 1.00026759449
1986.90605138 1.00062275804
1986.92648325 1.00054773266
1986.94691531 1.00050911563
1986.96734727 1.0006686024
1986.98777914 1.00049360868
1987.0082112 1.00047867318
1987.02864316 1.00026214299
1987.04907502 1.00005403994
1987.06950708 1.00007153182
1987.08993904 0.999847296492
1987.1103711 0.999408462138
1987.13080296 0.998139477808
1987.15123492 1.00066459995
1987.17166698 1.00068620481
1987.19209884 1.00075569119
1987.2125308 1.00087628008
1987.23296286 1.00053638042
1987.25339472 1.00060615341
1987.27382667 1.00059737388
1987.29425873 1.00063856019
1987.31469059 1.00039904514
1987.33512254 1.00053333541
1987.3555546 1.0003568692
1987.37598646 1.00027493828
1987.39641841 1.00018649644
1987.41685037 0.999956680196
1987.43728232 0.999805392841
1987.45771428 0.999889140664
1987.47814633 0.999974854828
1987.49857818 0.999793551345
1987.51901024 0.99980532724
1987.53944219 0.999646506784
1987.55987404 0.999595359735
1987.6211699 0.99854514979
1987.64160195 1.00019932546
1987.6620339 1.00021018001
1987.68246575 1.00026716954
1987.7028978 1.00009316168
1987.72332975 1.00005048306
1987.7437617 1.00002631304
1987.76419365 0.999945644278
1987.7846256 1.00009951143
1987.80505755 0.999937767647
1987.90721729 1.00096468099
1987.92764923 1.00063680074
1987.94808128 1.00025593695
1987.96851313 1.00012944069
1987.98894517 0.999840979706
1988.00937712 1.00010970435
1988.02980896 1.00021739815
1988.05024101 1.0001386254
1988.07067295 1.0002017512
1988.09110479 1.00011792275
1988.11153684 1.0001753212
1988.13196868 0.999919116877
1988.15240062 0.999932098595
1988.17283267 0.999837869053
1988.19326451 0.999749521197
1988.21369645 0.99960197516
1988.23412849 0.998896487696
1988.25456033 0.999356904614
1988.27499227 0.999304549403
1988.31585625 0.999166839772
1988.33628809 0.999364627606
1988.35672013 0.997717994307
1988.37715207 0.999765905425
1988.39758391 0.999722907008
1988.41801595 0.99973521017
1988.43844789 0.999648001558
1988.45887993 0.99954680638
1988.47931176 0.999501775107
1988.4997437 0.999293184634
1988.52017574 0.999208672481
1988.54060757 0.999109523804
1988.56103951 0.999062071297
1988.58147154 0.998294570752
1988.60190338 0.997262853539
1988.62233532 1.00060263937
1988.64276735 1.00051133583
1988.66319918 1.00030283545
1988.68363112 0.999924188143
1988.70406315 0.999696254517
1988.72449499 0.999362111845
1988.74492692 0.999157954899
1988.76535895 0.999085725815
1988.78579088 0.999309824515
1988.80622272 0.999159984117
1988.88795054 0.998960555739
1988.90838237 0.999175730719
1988.9288144 0.999706472178
1988.94924633 1.00020083172
1988.96967816 1.00036664033
1988.99011019 1.00042975134
1989.01054212 1.00008668867
1989.03097395 0.999812671208
1989.05140597 0.999588892745
1989.0718379 0.999517906192
1989.09226973 0.99932339124
1989.11270176 0.999411787277
1989.13313368 0.999617840577
1989.15356561 0.999658348723
1989.17399754 0.999555462129
1989.19442946 0.999298704288
1989.21486139 0.999464703774
1989.23529331 0.999496306519
1989.25572524 0.999466123626
1989.3987488 1.0010369919
1989.41918072 1.00089021137
1989.43961255 1.00073185341
1989.46004457 1.00052190244
1989.48047649 1.00039892805
1989.50090831 1.00035966974
1989.52134033 0.999991089342
1989.54177225 0.998881116589
1989.56220407 0.999115013094
1989.58263609 0.999288799437
1989.60306801 0.999839346164
1989.62349983 0.999868179639
1989.64393185 0.999952082596
1989.66436376 0.999898897343
1989.68479558 0.999988859402
1989.7052276 0.999796797909
1989.72565952 0.999791643881
1989.74609133 0.999667389239
1989.76652335 0.999872795901
1989.78695527 0.999730158915
1989.84825101 0.999681156606
1989.86868303 0.999826843844
1989.88911484 1.00002563987
1989.90954676 1.00057632818
1989.92997877 1.00051085269
1989.95041059 1.00087223432
1989.9708425 1.00083568267
1989.99127451 1.00075333481
1990.01170633 1.00077383206
1990.03213824 1.00085952423
1990.05257025 1.00005056322
1990.07300206 1.00063165678
1990.09343397 1.00051608713
1990.11386599 1.00043871184
1990.1342979 1.00075265249
1990.17516172 1.00167618455
1990.21602544 0.999821000067
1990.23645745 0.996443268707
1990.25688935 0.98477513684
1990.35904889 1.00108305618
1990.3794807 1.00068309531
1990.39991271 1.00055393751
1990.42034461 1.00089457542
1990.48164033 1.00165509026
1990.50207224 0.999276263731
1990.60423176 1.00099527144
1990.62466366 1.00104214612
1990.64509566 1.00074584366
1990.66552747 1.00059482506
1990.68595937 1.00044847717
1990.70639137 1.00054190717
1990.72682317 1.00060783231
1990.89027847 1.00041458598
1990.91071027 1.000105892
1990.93114227 0.999906725673
1990.95157417 0.999819692077
1990.97200607 0.999820112863
1990.99243797 0.999751943084
1991.01286986 1.00009593653
1991.03330176 1.00022542573
1991.05373366 1.00028904618
1991.07416555 1.0004119371
1991.09459735 1.00049407503
1991.11502934 1.00039470552
1991.13546124 1.00019886262
1991.15589323 1.00010402045
1991.17632503 1.00001423006
1991.19675692 0.999812748303
1991.21718892 0.999799922596
1991.23762071 0.999947291833
1991.25805261 0.999683885552
1991.2784846 0.999561051609
1991.29891639 0.999549309792
1991.33978028 1.0016602568
1991.36021207 1.00095697773
1991.38064396 1.00066099281
1991.40107595 1.00003395604
1991.42150774 0.999941378292
1991.44193963 0.999677723849
1991.46237162 0.999344106611
1991.48280351 0.99910699066
1991.5032353 0.999286906766
1991.52366729 0.998962619122
1991.54409918 0.999304595741
1991.56453097 0.999265826926
1991.58496296 0.999139029212
1991.60539485 0.999339657522
1991.62582684 0.999753778932
1991.64625862 0.99990457742
1991.66669051 1.00006668197
1991.6871225 1.00019418478
1991.70755428 1.00012626187
1991.72798617 0.999991531603
1991.74841806 0.999967989969
1991.76884994 0.999961243665
1991.78928183 0.99972983692
1991.80971371 0.999776740682
1991.8301456 0.999674305967
1991.85057748 0.999605430717
1991.87100937 0.999685729113
1991.89144125 0.999476868491
1991.91187314 0.999657634903
1991.93230502 0.999910611329
1991.9527369 1.00034636438
1991.97316878 0.999984205287
1992.07532819 1.0003653925
1992.09576018 1.00050243328
1992.11619206 1.0007733755
1992.13662384 1.00079096474
1992.15705582 1.00058687067
1992.1774877 1.00051339424
1992.19791948 1.00052594024
1992.21835146 1.00031876362
1992.32051085 1.00059897165
1992.34094272 1.00022245647
1992.3613746 1.00002818234
1992.38180648 1.00017461608
1992.40223835 1.00029219733
1992.42267023 1.00061663605
1992.44310221 1.00064169398
1992.46353408 1.00056663576
1992.48396586 1.0007259335
1992.50439783 1.00086023698
1992.52482961 1.0004554394
1992.54526148 1.00029757958
1992.56569346 1.00020043881
1992.58612523 1.00017040925
1992.6065571 0.999919033585
1992.64742085 0.999649257939
1992.66785272 1.00000116359
1992.68828469 1.0000750261
1992.83130779 0.999654387283
1992.85173966 0.999850290726
1992.87217153 0.999848734277
1992.8926034 1.00011623624
1992.91303527 1.00029390364
1992.93346714 1.00025295796
1992.95389901 1.00026232595
1992.97433098 1.0002172262
1992.99476274 0.999893713567
1993.01519461 1.00000970548
1993.03562658 0.999892562636
1993.05605835 0.999875898267
1993.07649021 0.999892232905
1993.09692218 0.999691329863
1993.11735394 0.999541518994
1993.13778581 0.999061666488
1993.15821778 0.999146039391
1993.17864954 0.99887454043
1993.19908141 0.99764047921
1993.21951337 0.999364570508
1993.23994514 0.999530138985
1993.2603771 0.997757940613
1993.28080886 0.999568678642
1993.30124073 0.99983858881
1993.32167269 0.999813493023
1993.34210455 0.999884010946
1993.36253632 1.00019146592
1993.38296828 1.00028801051
1993.40340014 1.00008833576
1993.4238319 1.00003701944
1993.44426386 0.999938737747
1993.46469572 0.999773794494
1993.48512749 0.999606398418
1993.50555945 1.00033269641
1993.52599131 1.00077855036
1993.54642307 1.00008439359
1993.56685503 0.999680560497
1993.58728689 0.999378122049
1993.60771865 0.999279523873
1993.6281506 0.999940039178
1993.64858246 1.00009396324
1993.66901442 0.999946314095
1993.68944618 1.00009603449
1993.70987804 1.0001916099
1993.73030999 0.999978566629
1993.75074175 1.00030292049
1993.77117361 1.00016921693
1993.79160556 0.999968106104
1993.81203742 0.999715019062
